tau	(1,2)	(1,3)	(1,4)	(2,3)	(2,4)	(3,4)
0	0.666484	0.66634	0.66649	0.666042	0.666747	0.66591
0.101010101010101	0.632818	0.626849	0.619562	0.614858	0.609165	0.603903
0.202020202020202	0.59831	0.585093	0.572562	0.566237	0.55461	0.546803
0.303030303030303	0.564104	0.545729	0.52736	0.521891	0.508191	0.498795
0.404040404040404	0.532863	0.511507	0.488812	0.484905	0.46866	0.461515
0.505050505050505	0.506199	0.482225	0.458924	0.455727	0.439942	0.433672
0.606060606060606	0.482332	0.45723	0.434054	0.432238	0.418405	0.412994
0.707070707070707	0.464348	0.437108	0.416402	0.415542	0.403567	0.398866
0.808080808080808	0.449596	0.422626	0.403286	0.403526	0.393043	0.390148
0.909090909090909	0.438165	0.411419	0.394712	0.394157	0.386566	0.383736
1.01010101010101	0.428851	0.402591	0.386677	0.388283	0.380887	0.380116
1.11111111111111	0.42056	0.395332	0.381195	0.382867	0.376493	0.375881
1.21212121212121	0.413588	0.388582	0.377622	0.379171	0.374507	0.372147
1.31313131313131	0.407505	0.385355	0.374757	0.376488	0.372316	0.371627
1.41414141414141	0.403374	0.38159	0.373457	0.374927	0.371568	0.371728
1.51515151515152	0.398651	0.378429	0.371794	0.372296	0.369769	0.369648
1.61616161616162	0.396222	0.376699	0.370789	0.37161	0.369478	0.369039
1.71717171717172	0.392201	0.375084	0.370213	0.370638	0.369349	0.369514
1.81818181818182	0.389106	0.373557	0.369268	0.370036	0.368928	0.368626
1.91919191919192	0.386466	0.37179	0.368951	0.369355	0.36866	0.368002
2.02020202020202	0.385229	0.37239	0.370141	0.370605	0.369023	0.369237
2.12121212121212	0.384165	0.371074	0.367584	0.369271	0.368046	0.367112
2.22222222222222	0.38136	0.369493	0.368199	0.368938	0.368364	0.368201
2.32323232323232	0.379872	0.369425	0.368132	0.36829	0.367974	0.368381
2.42424242424242	0.379726	0.369862	0.368494	0.369067	0.368158	0.368371
2.52525252525253	0.377719	0.369334	0.368177	0.368008	0.368523	0.367942
2.62626262626263	0.376533	0.36874	0.367319	0.367899	0.367286	0.367653
2.72727272727273	0.375602	0.368058	0.367647	0.367962	0.367612	0.367692
2.82828282828283	0.375568	0.368359	0.368193	0.368175	0.368227	0.368556
2.92929292929293	0.373569	0.367934	0.367773	0.367541	0.367779	0.368639
3.03030303030303	0.373747	0.368094	0.367818	0.368065	0.367829	0.368062
3.13131313131313	0.373589	0.369203	0.368966	0.369408	0.368936	0.368552
3.23232323232323	0.372408	0.368792	0.367623	0.367752	0.367534	0.368123
3.33333333333333	0.372926	0.368433	0.367865	0.368123	0.367766	0.36786
3.43434343434343	0.372667	0.367836	0.368518	0.367859	0.368332	0.368617
3.53535353535354	0.37154	0.368429	0.366981	0.367846	0.366836	0.367514
3.63636363636364	0.370171	0.367541	0.367681	0.368496	0.367651	0.367691
3.73737373737374	0.370983	0.368313	0.368263	0.368352	0.368544	0.368109
3.83838383838384	0.369932	0.368051	0.367003	0.367204	0.368136	0.367629
3.93939393939394	0.370182	0.367551	0.367125	0.367739	0.367713	0.367873
4.04040404040404	0.369992	0.368602	0.368003	0.367778	0.367646	0.36736
4.14141414141414	0.369918	0.367976	0.367911	0.367906	0.368212	0.368028
4.24242424242424	0.369921	0.367693	0.367199	0.367855	0.367708	0.367448
4.34343434343434	0.369295	0.367321	0.367493	0.368317	0.368042	0.367954
4.44444444444444	0.369355	0.368141	0.368147	0.368572	0.36736	0.367971
4.54545454545454	0.370157	0.367905	0.367917	0.368839	0.368189	0.368056
4.64646464646465	0.368491	0.366027	0.366656	0.367726	0.36739	0.367837
4.74747474747475	0.36814	0.367915	0.368152	0.367464	0.367934	0.367717
4.84848484848485	0.368805	0.367684	0.367787	0.367611	0.367596	0.367133
4.94949494949495	0.368733	0.368515	0.368802	0.367994	0.367896	0.36811
5.05050505050505	0.368248	0.367911	0.368056	0.368321	0.368153	0.368437
5.15151515151515	0.368516	0.36806	0.368056	0.367914	0.368029	0.36861
5.25252525252525	0.36872	0.367283	0.367292	0.368231	0.367576	0.367213
5.35353535353535	0.368171	0.367641	0.367506	0.368106	0.367817	0.367115
5.45454545454545	0.368875	0.367487	0.367143	0.367126	0.368241	0.366705
5.55555555555556	0.368484	0.368127	0.367208	0.367838	0.367416	0.367258
5.65656565656566	0.368151	0.367518	0.367209	0.367423	0.367704	0.367711
5.75757575757576	0.368321	0.367287	0.367719	0.367963	0.368479	0.368016
5.85858585858586	0.36786	0.367436	0.36769	0.36767	0.367421	0.367475
5.95959595959596	0.368025	0.3684	0.368171	0.368475	0.368629	0.368308
6.06060606060606	0.367697	0.367612	0.367649	0.367311	0.367132	0.367909
6.16161616161616	0.367585	0.367312	0.368118	0.367941	0.368239	0.367493
6.26262626262626	0.367736	0.367528	0.367831	0.36778	0.367981	0.367998
6.36363636363636	0.368915	0.368275	0.368243	0.368118	0.368319	0.368304
6.46464646464647	0.36891	0.368427	0.368704	0.368084	0.368419	0.368213
6.56565656565657	0.368357	0.367315	0.367587	0.368363	0.368379	0.36757
6.66666666666667	0.367958	0.366861	0.367956	0.367493	0.367554	0.367473
6.76767676767677	0.367575	0.367533	0.367365	0.367309	0.367694	0.367791
6.86868686868687	0.367864	0.367098	0.368182	0.368331	0.368166	0.367653
6.96969696969697	0.368153	0.368157	0.369132	0.368747	0.368377	0.368097
7.07070707070707	0.367981	0.368529	0.368596	0.368011	0.368182	0.36819
7.17171717171717	0.367753	0.367835	0.367697	0.367096	0.367584	0.36766
7.27272727272727	0.368208	0.367639	0.367785	0.367782	0.368075	0.367435
7.37373737373737	0.368505	0.367923	0.368239	0.367491	0.367375	0.368073
7.47474747474747	0.36861	0.36812	0.368513	0.368259	0.367806	0.368232
7.57575757575758	0.367376	0.368071	0.368232	0.367897	0.367906	0.368225
7.67676767676768	0.368262	0.368301	0.367095	0.368854	0.368205	0.367543
7.77777777777778	0.366934	0.367384	0.367776	0.367974	0.368255	0.368264
7.87878787878788	0.367336	0.367261	0.367627	0.367822	0.367675	0.367803
7.97979797979798	0.367537	0.368089	0.368024	0.367434	0.3672	0.368322
8.08080808080808	0.367817	0.368427	0.368379	0.367596	0.36838	0.367896
8.18181818181818	0.367491	0.367866	0.36783	0.368715	0.367895	0.367575
8.28282828282828	0.368972	0.368044	0.368306	0.368367	0.368005	0.368107
8.38383838383838	0.367322	0.367026	0.366962	0.366957	0.367351	0.367033
8.48484848484848	0.368092	0.367971	0.367843	0.368107	0.368031	0.367884
8.58585858585858	0.367045	0.366974	0.368156	0.367437	0.367434	0.367925
8.68686868686869	0.368775	0.367854	0.368245	0.368313	0.367964	0.368116
8.78787878787879	0.368247	0.36797	0.368694	0.368146	0.368503	0.368374
8.88888888888889	0.367847	0.3672	0.366979	0.367405	0.367823	0.367596
8.98989898989899	0.368017	0.367936	0.367655	0.368565	0.367773	0.368225
9.09090909090909	0.367587	0.367222	0.368037	0.368035	0.368264	0.368107
9.19191919191919	0.367101	0.367398	0.368134	0.367501	0.367636	0.367235
9.29292929292929	0.367279	0.367746	0.36827	0.36778	0.368101	0.368406
9.39393939393939	0.367803	0.368025	0.366814	0.36747	0.366831	0.367498
9.49494949494949	0.368146	0.368138	0.367621	0.367814	0.368039	0.368063
9.5959595959596	0.367221	0.36773	0.368059	0.367074	0.367968	0.368066
9.6969696969697	0.36791	0.367601	0.367836	0.367857	0.368211	0.367565
9.7979797979798	0.368273	0.368426	0.369233	0.368442	0.368253	0.368376
9.8989898989899	0.367958	0.368224	0.368406	0.368247	0.368279	0.367897
10	0.368212	0.367803	0.367605	0.367259	0.368539	0.368079
