tau	(1,2)	(1,3)	(1,4)	(1,5)	(2,3)	(2,4)	(2,5)	(3,4)	(3,5)	(4,5)
0	0.500207	0.500129	0.500228	0.499749	0.500756	0.501258	0.499892	0.501388	0.500448	0.49974
0.101010101010101	0.497804	0.488068	0.446351	0.445859	0.488894	0.44819	0.447011	0.448911	0.447939	0.461052
0.202020202020202	0.49379	0.475643	0.386416	0.384603	0.478022	0.388229	0.386667	0.392546	0.388845	0.422417
0.303030303030303	0.490487	0.462228	0.323826	0.322351	0.466241	0.327027	0.325442	0.331336	0.327413	0.389432
0.404040404040404	0.48774	0.450892	0.26326	0.261166	0.455008	0.266101	0.263114	0.272163	0.267035	0.360684
0.505050505050505	0.484829	0.437709	0.206541	0.204398	0.444367	0.210241	0.207768	0.215422	0.211374	0.337365
0.606060606060606	0.482062	0.424711	0.158067	0.1546	0.432013	0.161276	0.157966	0.167159	0.161418	0.317955
0.707070707070707	0.479434	0.411891	0.117904	0.114985	0.419168	0.120757	0.11754	0.126074	0.120841	0.300753
0.808080808080808	0.475557	0.398528	0.086444	0.083809	0.406208	0.088375	0.086097	0.093656	0.088682	0.28492
0.909090909090909	0.472475	0.386456	0.061403	0.059594	0.395866	0.063447	0.061408	0.067933	0.064051	0.269276
1.01010101010101	0.469425	0.372451	0.044381	0.041941	0.383791	0.045775	0.043373	0.04908	0.045389	0.252125
1.11111111111111	0.467364	0.360861	0.03122	0.029465	0.371839	0.032128	0.030395	0.035396	0.03245	0.237498
1.21212121212121	0.462748	0.346842	0.021949	0.020396	0.357928	0.022556	0.021121	0.024821	0.022659	0.220888
1.31313131313131	0.459833	0.335576	0.015183	0.014213	0.346561	0.015776	0.014717	0.017608	0.015939	0.205116
1.41414141414141	0.456535	0.322771	0.010409	0.009691	0.334623	0.010835	0.010168	0.012386	0.010994	0.189833
1.51515151515152	0.45417	0.310416	0.007186	0.006616	0.323164	0.007463	0.006976	0.008665	0.007641	0.176129
1.61616161616162	0.45065	0.298273	0.004994	0.004557	0.310783	0.005254	0.004829	0.006171	0.005284	0.161503
1.71717171717172	0.449002	0.286488	0.003479	0.003161	0.299497	0.003511	0.003293	0.004256	0.003646	0.148981
1.81818181818182	0.447	0.27551	0.002352	0.00215	0.28921	0.002451	0.002266	0.00306	0.002578	0.136896
1.91919191919192	0.442962	0.263202	0.001635	0.001533	0.278098	0.001743	0.00163	0.002203	0.001767	0.1254
2.02020202020202	0.438227	0.251559	0.001126	0.001033	0.265491	0.001176	0.001077	0.001535	0.00129	0.114653
2.12121212121212	0.435388	0.240949	0.000773	0.000701	0.255694	0.000825	0.00067	0.001108	0.000855	0.104751
2.22222222222222	0.432744	0.229897	0.000567	0.000467	0.244523	0.000599	0.000482	0.000787	0.000621	0.094894
2.32323232323232	0.431199	0.220471	0.000371	0.000316	0.235303	0.000382	0.000333	0.000517	0.000413	0.086989
2.42424242424242	0.427438	0.209708	0.000235	0.000224	0.224386	0.000253	0.000258	0.00036	0.000294	0.079251
2.52525252525253	0.423921	0.200085	0.000163	0.000137	0.215025	0.000183	0.000165	0.000259	0.000215	0.071845
2.62626262626263	0.421415	0.189504	0.000128	9.4e-05	0.204463	0.000125	9.5e-05	0.00019	0.000128	0.065596
2.72727272727273	0.417884	0.179934	8.1e-05	7.1e-05	0.195623	8.6e-05	8e-05	0.000132	0.000106	0.059746
2.82828282828283	0.414681	0.172412	4.8e-05	4.2e-05	0.187081	6.1e-05	4.2e-05	9e-05	6.1e-05	0.053896
2.92929292929293	0.411146	0.161973	3.1e-05	3.3e-05	0.177318	3.8e-05	4e-05	7e-05	4.5e-05	0.049317
3.03030303030303	0.409213	0.154681	1.6e-05	2.2e-05	0.169673	2e-05	2.5e-05	3.6e-05	3.6e-05	0.044916
3.13131313131313	0.406738	0.147062	1.6e-05	2e-05	0.161292	9e-06	1.9e-05	3.7e-05	2.6e-05	0.040039
3.23232323232323	0.402419	0.139003	1.5e-05	8e-06	0.153381	1.2e-05	1.4e-05	1.9e-05	2.3e-05	0.036519
3.33333333333333	0.40071	0.131719	6e-06	5e-06	0.145358	1e-05	6e-06	1.4e-05	9e-06	0.033094
3.43434343434343	0.397394	0.125369	4e-06	1e-06	0.138355	7e-06	8e-06	7e-06	5e-06	0.029845
3.53535353535354	0.394347	0.118402	4e-06	4e-06	0.1321	4e-06	7e-06	1.1e-05	6e-06	0.027337
3.63636363636364	0.391706	0.111501	3e-06	2e-06	0.124905	2e-06	2e-06	6e-06	1e-06	0.024551
3.73737373737374	0.389545	0.105721	1e-06	0	0.118808	1e-06	0	3e-06	3e-06	0.022173
3.83838383838384	0.386234	0.099483	3e-06	0	0.112487	3e-06	0	2e-06	0	0.020181
3.93939393939394	0.383763	0.093585	4e-06	0	0.106955	3e-06	0	2e-06	0	0.018492
4.04040404040404	0.380139	0.089059	2e-06	1e-06	0.101024	0	1e-06	2e-06	0	0.016557
4.14141414141414	0.377294	0.083577	2e-06	0	0.095905	2e-06	0	1e-06	0	0.014996
4.24242424242424	0.37392	0.078538	0	0	0.090609	0	1e-06	0	0	0.013425
4.34343434343434	0.3712	0.074181	0	1e-06	0.085136	0	1e-06	0	1e-06	0.012186
4.44444444444444	0.368847	0.069721	1e-06	0	0.08065	0	0	1e-06	0	0.011212
4.54545454545454	0.365652	0.06549	0	0	0.076292	0	0	1e-06	0	0.0098
4.64646464646465	0.363177	0.062318	0	0	0.072485	0	0	0	0	0.009045
4.74747474747475	0.360559	0.058177	0	0	0.067816	0	0	0	0	0.008113
4.84848484848485	0.35811	0.05457	0	0	0.064057	0	0	0	0	0.007447
4.94949494949495	0.355047	0.051192	0	0	0.060311	0	0	0	0	0.006617
5.05050505050505	0.350515	0.047969	0	0	0.057347	0	0	0	0	0.00602
5.15151515151515	0.349514	0.045369	0	0	0.054103	0	0	0	0	0.005439
5.25252525252525	0.345944	0.042851	0	0	0.051093	0	0	0	0	0.00481
5.35353535353535	0.343468	0.039839	0	0	0.047947	0	0	0	0	0.004546
5.45454545454545	0.339564	0.037904	0	0	0.045464	0	0	0	0	0.003971
5.55555555555556	0.337421	0.035285	0	0	0.042609	0	0	0	0	0.003428
5.65656565656566	0.335133	0.033171	0	0	0.040472	0	0	0	0	0.003289
5.75757575757576	0.333082	0.030962	0	0	0.03781	0	0	0	0	0.002977
5.85858585858586	0.330055	0.028696	0	0	0.035314	0	0	0	0	0.00266
5.95959595959596	0.327088	0.027229	0	0	0.033442	0	0	0	0	0.002419
6.06060606060606	0.324743	0.02527	0	0	0.031598	0	0	0	0	0.002113
6.16161616161616	0.321049	0.02363	0	0	0.029739	0	0	0	0	0.001912
6.26262626262626	0.31779	0.022206	0	0	0.027951	0	0	0	0	0.001819
6.36363636363636	0.316003	0.020994	0	0	0.026289	0	0	0	0	0.001697
6.46464646464647	0.31368	0.019447	0	0	0.024818	0	0	0	0	0.001459
6.56565656565657	0.311053	0.01863	0	0	0.023381	0	0	0	0	0.001348
6.66666666666667	0.307234	0.017296	0	0	0.021987	0	0	0	0	0.001163
6.76767676767677	0.303834	0.015972	0	0	0.020797	0	0	0	0	0.001011
6.86868686868687	0.302741	0.015011	0	0	0.019428	0	0	0	0	0.001001
6.96969696969697	0.30149	0.014179	0	0	0.018533	0	0	0	0	0.00087
7.07070707070707	0.297017	0.013252	0	0	0.017296	0	0	0	0	0.000796
7.17171717171717	0.296016	0.012277	0	0	0.016268	0	0	0	0	0.000717
7.27272727272727	0.293835	0.011606	0	0	0.015472	0	0	0	0	0.000677
7.37373737373737	0.289544	0.010983	0	0	0.014422	0	0	0	0	0.000557
7.47474747474747	0.287409	0.010161	0	0	0.013508	0	0	0	0	0.000521
7.57575757575758	0.284969	0.009473	0	0	0.012553	0	0	0	0	0.000399
7.67676767676768	0.28201	0.00898	0	0	0.011996	0	0	0	0	0.000419
7.77777777777778	0.279482	0.008282	0	0	0.011318	0	0	0	0	0.00035
7.87878787878788	0.277172	0.007797	0	0	0.010559	0	0	0	0	0.000323
7.97979797979798	0.275933	0.007193	0	0	0.010012	0	0	0	0	3e-04
8.08080808080808	0.272835	0.006707	0	0	0.009436	0	0	0	0	0.000266
8.18181818181818	0.271003	0.006415	0	0	0.008889	0	0	0	0	0.000273
8.28282828282828	0.26893	0.005961	0	0	0.008244	0	0	0	0	0.000214
8.38383838383838	0.265175	0.005617	0	0	0.008071	0	0	0	0	0.000221
8.48484848484848	0.263146	0.00515	0	0	0.007417	0	0	0	0	0.000197
8.58585858585858	0.260755	0.004848	0	0	0.006879	0	0	0	0	0.000187
8.68686868686869	0.25826	0.004502	0	0	0.006368	0	0	0	0	0.000153
8.78787878787879	0.255632	0.004203	0	0	0.006084	0	0	0	0	0.000139
8.88888888888889	0.253599	0.003957	0	0	0.005702	0	0	0	0	0.000121
8.98989898989899	0.251626	0.003782	0	0	0.005393	0	0	0	0	0.000131
9.09090909090909	0.249645	0.003461	0	0	0.005147	0	0	0	0	0.000104
9.19191919191919	0.246977	0.003293	0	0	0.00496	0	0	0	0	8.6e-05
9.29292929292929	0.244853	0.003094	0	0	0.004521	0	0	0	0	8.1e-05
9.39393939393939	0.242523	0.002896	0	0	0.004339	0	0	0	0	7e-05
9.49494949494949	0.240318	0.002601	0	0	0.003937	0	0	0	0	6.4e-05
9.5959595959596	0.236499	0.002543	0	0	0.003682	0	0	0	0	6.2e-05
9.6969696969697	0.2362	0.00229	0	0	0.003548	0	0	0	0	4.9e-05
9.7979797979798	0.233723	0.002204	0	0	0.003276	0	0	0	0	3.9e-05
9.8989898989899	0.23106	0.001965	0	0	0.003135	0	0	0	0	3.4e-05
10	0.229413	0.001938	0	0	0.002986	0	0	0	0	3.7e-05
