tau	"(1,2) 1"	"(1,2) 2"	"(1,2) 3"	"(1,3) 1"	"(1,3) 2"	"(1,3) 3"	"(1,4) 1"	"(1,4) 2"	"(1,4) 3"	"(2,3) 1"	"(2,3) 2"	"(2,3) 3"	"(2,4) 1"	"(2,4) 2"	"(2,4) 3"	"(3,4) 1"	"(3,4) 2"	"(3,4) 3"
0	0.222868	0.081212	0.018945	0.218787	0.083768	0.020225	0.215664	0.084936	0.022094	0.214559	0.087734	0.020838	0.211193	0.088829	0.022748	0.207095	0.091422	0.023941
0.101010101010101	0.221856	0.089628	0.023675	0.215084	0.092274	0.025103	0.207594	0.09395	0.028277	0.207979	0.095196	0.025418	0.20031	0.097067	0.028812	0.195091	0.09872	0.0301
0.202020202020202	0.218701	0.098547	0.029258	0.209635	0.101494	0.030769	0.196929	0.104041	0.035871	0.200063	0.103145	0.030792	0.187443	0.106303	0.036416	0.182094	0.108185	0.037473
0.303030303030303	0.212266	0.105672	0.034857	0.200359	0.108754	0.036039	0.181553	0.112092	0.043477	0.189698	0.109272	0.036012	0.172152	0.113343	0.043923	0.167287	0.115369	0.044883
0.404040404040404	0.204533	0.112885	0.040403	0.190426	0.115507	0.041728	0.166796	0.120123	0.050841	0.179523	0.115426	0.041251	0.157588	0.121219	0.051455	0.154045	0.123094	0.052718
0.505050505050505	0.197395	0.117635	0.04452	0.180849	0.120249	0.045509	0.153545	0.125952	0.056792	0.169727	0.119411	0.045135	0.14546	0.126534	0.057523	0.142604	0.128426	0.058609
0.606060606060606	0.189543	0.120404	0.047479	0.17199	0.123129	0.048375	0.141657	0.129089	0.061304	0.1614	0.12237	0.04779	0.135113	0.130382	0.062099	0.133778	0.132344	0.063284
0.707070707070707	0.183306	0.123016	0.050738	0.164683	0.125816	0.051524	0.133011	0.13293	0.066021	0.154945	0.124363	0.050773	0.127103	0.133559	0.066809	0.126986	0.135793	0.067734
0.808080808080808	0.177884	0.123996	0.052433	0.158448	0.12644	0.053217	0.125468	0.133657	0.068527	0.150049	0.125745	0.052695	0.120659	0.134934	0.069287	0.121444	0.136715	0.070084
0.909090909090909	0.173394	0.125096	0.054104	0.153723	0.128638	0.055066	0.120426	0.136164	0.071079	0.146187	0.127147	0.054413	0.116832	0.13662	0.071793	0.117453	0.139263	0.072883
1.01010101010101	0.170037	0.12635	0.055223	0.149982	0.129607	0.056063	0.116548	0.137105	0.07282	0.143595	0.128438	0.055674	0.113939	0.138119	0.073673	0.115152	0.14047	0.074758
1.11111111111111	0.166504	0.12621	0.056498	0.146468	0.13003	0.057661	0.113178	0.137916	0.074875	0.141159	0.128776	0.056958	0.111414	0.138381	0.075208	0.112602	0.140901	0.076482
1.21212121212121	0.163351	0.126856	0.05667	0.143433	0.130998	0.057601	0.110922	0.139116	0.075359	0.138611	0.130179	0.057292	0.10948	0.139561	0.075874	0.110907	0.142217	0.076944
1.31313131313131	0.161207	0.1263	0.057096	0.141078	0.130259	0.058321	0.10951	0.139127	0.076185	0.137238	0.129437	0.058085	0.108087	0.13937	0.076562	0.109839	0.141395	0.077801
1.41414141414141	0.159085	0.126875	0.057385	0.139853	0.131179	0.058888	0.108363	0.139542	0.077131	0.136583	0.130904	0.058455	0.107917	0.140338	0.077241	0.109059	0.142265	0.078332
1.51515151515152	0.157103	0.127168	0.05731	0.138076	0.131477	0.059004	0.107204	0.140707	0.07721	0.135791	0.130951	0.058773	0.106503	0.141021	0.077497	0.107775	0.142783	0.078928
1.61616161616162	0.155635	0.127593	0.058272	0.137499	0.132172	0.059485	0.106589	0.141268	0.07843	0.135431	0.131263	0.059269	0.106206	0.141433	0.078885	0.107526	0.143421	0.079522
1.71717171717172	0.154191	0.127105	0.057907	0.136069	0.131729	0.059582	0.105798	0.140798	0.078466	0.134368	0.131122	0.059293	0.105581	0.141084	0.078601	0.10685	0.142327	0.079627
1.81818181818182	0.153613	0.127283	0.058248	0.136188	0.132523	0.059994	0.105766	0.141863	0.078759	0.134966	0.132018	0.059974	0.105665	0.141804	0.079029	0.107015	0.14321	0.080038
1.91919191919192	0.152116	0.126992	0.058001	0.135178	0.132916	0.059769	0.105018	0.141659	0.078495	0.134235	0.132054	0.059848	0.10511	0.141429	0.078824	0.105951	0.143204	0.079821
2.02020202020202	0.150612	0.127354	0.058137	0.134723	0.132771	0.059895	0.104807	0.142333	0.078978	0.133508	0.132393	0.059899	0.104772	0.14226	0.079153	0.106022	0.143474	0.08005
2.12121212121212	0.150574	0.127232	0.058541	0.134427	0.132788	0.060427	0.105139	0.141719	0.079736	0.133884	0.13257	0.060222	0.104942	0.142092	0.079746	0.105804	0.142845	0.080471
2.22222222222222	0.149416	0.126821	0.05817	0.133621	0.133071	0.060119	0.10415	0.142153	0.079459	0.132911	0.132291	0.060132	0.104249	0.141675	0.079201	0.105219	0.143039	0.07999
2.32323232323232	0.148899	0.126606	0.058306	0.133216	0.132859	0.060001	0.104374	0.142209	0.07948	0.13265	0.132413	0.060243	0.104236	0.141848	0.079718	0.105123	0.142991	0.080058
2.42424242424242	0.148143	0.126034	0.058408	0.1339	0.132457	0.060742	0.104515	0.141527	0.08009	0.132973	0.132436	0.060177	0.10409	0.141819	0.079622	0.104928	0.142916	0.080397
2.52525252525253	0.147825	0.12648	0.058603	0.133667	0.13297	0.060791	0.104393	0.141805	0.08015	0.133268	0.132838	0.060897	0.104145	0.142333	0.080083	0.105393	0.142913	0.080775
2.62626262626263	0.14732	0.126271	0.05847	0.133267	0.132743	0.060612	0.103991	0.142188	0.080009	0.133023	0.132851	0.060323	0.103974	0.142217	0.079694	0.104909	0.143061	0.080005
2.72727272727273	0.147408	0.126118	0.058066	0.133128	0.132641	0.060202	0.104826	0.141372	0.079599	0.133149	0.13275	0.060434	0.104885	0.141865	0.079545	0.10504	0.142225	0.079894
2.82828282828283	0.146198	0.125975	0.058573	0.13255	0.132638	0.060566	0.10386	0.141609	0.08004	0.132637	0.133168	0.060861	0.10434	0.142053	0.080322	0.104826	0.142361	0.080448
2.92929292929293	0.14673	0.126537	0.058513	0.133001	0.133587	0.060738	0.104268	0.142351	0.080194	0.132892	0.1334	0.060668	0.104231	0.142287	0.080303	0.104708	0.14325	0.080505
3.03030303030303	0.146231	0.126044	0.058595	0.13273	0.132694	0.060666	0.104227	0.142203	0.080222	0.132749	0.132989	0.060745	0.103962	0.142535	0.080242	0.104506	0.142858	0.080376
3.13131313131313	0.14581	0.126109	0.057904	0.13226	0.132767	0.060135	0.104279	0.14206	0.079805	0.132134	0.132642	0.060254	0.103698	0.142327	0.079625	0.103993	0.142365	0.079852
3.23232323232323	0.145434	0.125714	0.057698	0.133035	0.133067	0.060641	0.103846	0.14241	0.079669	0.132485	0.133113	0.060307	0.103991	0.142049	0.079136	0.104288	0.142965	0.080093
3.33333333333333	0.144818	0.125993	0.058611	0.13301	0.133006	0.060943	0.104106	0.142288	0.0802	0.132726	0.133036	0.061249	0.104042	0.142706	0.080627	0.104422	0.142914	0.080774
3.43434343434343	0.145186	0.126009	0.058391	0.132941	0.133426	0.060905	0.104036	0.14241	0.080446	0.132404	0.133409	0.06082	0.104084	0.142237	0.080246	0.104215	0.14261	0.080635
3.53535353535354	0.143852	0.125612	0.058688	0.131587	0.132946	0.06127	0.103444	0.141732	0.080436	0.131859	0.133069	0.060977	0.103469	0.142112	0.080194	0.103669	0.14258	0.080931
3.63636363636364	0.144948	0.125907	0.058108	0.133061	0.133113	0.060631	0.103795	0.14227	0.080176	0.132776	0.13288	0.060747	0.103922	0.142355	0.080448	0.104072	0.142659	0.080286
3.73737373737374	0.144374	0.125481	0.058444	0.132463	0.133131	0.061157	0.103629	0.142321	0.080491	0.132682	0.133019	0.061206	0.103796	0.142154	0.080403	0.104027	0.142789	0.080676
3.83838383838384	0.144182	0.125651	0.058432	0.133031	0.133228	0.060866	0.104571	0.142509	0.080335	0.132878	0.13328	0.061096	0.104235	0.142332	0.080618	0.104357	0.142674	0.080448
3.93939393939394	0.144958	0.126358	0.058581	0.132599	0.133945	0.06109	0.10411	0.14284	0.080893	0.132319	0.133797	0.061015	0.104095	0.142777	0.080466	0.103947	0.143019	0.080642
4.04040404040404	0.143857	0.12611	0.058539	0.132498	0.133376	0.060862	0.104098	0.142571	0.080207	0.13212	0.133653	0.061323	0.103763	0.142592	0.080771	0.103734	0.142717	0.080627
4.14141414141414	0.144448	0.126057	0.058249	0.132405	0.133575	0.060985	0.103632	0.14244	0.080174	0.13245	0.133705	0.061058	0.103979	0.142796	0.080407	0.10359	0.142714	0.08056
4.24242424242424	0.14348	0.126067	0.058046	0.13268	0.133427	0.060702	0.10373	0.142567	0.079842	0.132911	0.134094	0.060954	0.103905	0.142638	0.08019	0.104199	0.142663	0.080321
4.34343434343434	0.143037	0.12556	0.058429	0.132446	0.133179	0.060989	0.103616	0.142488	0.080538	0.132156	0.133238	0.060995	0.103621	0.142168	0.080547	0.103859	0.142134	0.080561
4.44444444444444	0.143978	0.126122	0.058085	0.132937	0.133478	0.060681	0.103977	0.142823	0.079989	0.132666	0.133416	0.060967	0.10391	0.142994	0.080143	0.104029	0.142919	0.080466
4.54545454545454	0.143068	0.126002	0.058651	0.132267	0.134062	0.06135	0.103859	0.142613	0.080884	0.132516	0.133573	0.061031	0.103667	0.142688	0.080824	0.1038	0.142891	0.080692
4.64646464646465	0.143934	0.125845	0.058367	0.132741	0.133639	0.060983	0.10401	0.142524	0.08055	0.132424	0.133464	0.060924	0.103673	0.142837	0.080339	0.10353	0.142161	0.080498
4.74747474747475	0.143452	0.125877	0.058459	0.132262	0.133647	0.060968	0.104245	0.143167	0.080369	0.132315	0.133405	0.061038	0.103828	0.142703	0.080659	0.103983	0.142896	0.080449
4.84848484848485	0.143142	0.12562	0.058291	0.131676	0.133098	0.060786	0.103794	0.142534	0.080598	0.132304	0.133383	0.060952	0.103853	0.142598	0.080639	0.103631	0.142573	0.080522
4.94949494949495	0.143629	0.125725	0.058189	0.1335	0.133284	0.061305	0.104036	0.142892	0.08062	0.133236	0.133426	0.060973	0.103893	0.142598	0.0802	0.104339	0.142464	0.080664
5.05050505050505	0.1425	0.125776	0.058493	0.131877	0.133279	0.06113	0.103509	0.142366	0.080628	0.132135	0.132846	0.061285	0.103411	0.142211	0.080908	0.103645	0.142181	0.080819
5.15151515151515	0.14351	0.125497	0.058397	0.133072	0.13331	0.060866	0.104188	0.141764	0.080266	0.133144	0.133666	0.061107	0.104374	0.142306	0.080531	0.104093	0.142286	0.080651
5.25252525252525	0.144345	0.125635	0.058361	0.133008	0.133693	0.061079	0.104454	0.142621	0.080397	0.132528	0.133174	0.061121	0.104116	0.142518	0.080682	0.104139	0.142702	0.080925
5.35353535353535	0.143796	0.126361	0.058601	0.13272	0.134046	0.06134	0.104267	0.143046	0.080692	0.132818	0.133946	0.061561	0.104024	0.143293	0.081072	0.10402	0.142893	0.081035
5.45454545454545	0.142715	0.125568	0.058596	0.132307	0.133695	0.061157	0.10403	0.142808	0.080744	0.132657	0.13371	0.061316	0.10373	0.143029	0.080823	0.103946	0.143368	0.080546
5.55555555555556	0.143265	0.126047	0.058883	0.132981	0.133879	0.061657	0.103989	0.142584	0.081015	0.132663	0.133515	0.061526	0.103737	0.142681	0.081123	0.104286	0.142638	0.080892
5.65656565656566	0.14266	0.12611	0.05823	0.132214	0.134004	0.060966	0.103645	0.143158	0.080229	0.132542	0.133611	0.061162	0.103611	0.143174	0.080641	0.103989	0.143143	0.080566
5.75757575757576	0.1428	0.125368	0.05847	0.1324	0.133421	0.061304	0.104196	0.142461	0.08052	0.132427	0.133052	0.06121	0.103917	0.142362	0.080834	0.10406	0.142267	0.080683
5.85858585858586	0.142616	0.126125	0.058178	0.131929	0.133831	0.060883	0.103781	0.142735	0.080169	0.131918	0.133593	0.061245	0.103421	0.142903	0.08051	0.103527	0.143114	0.080793
5.95959595959596	0.143136	0.126404	0.058595	0.132364	0.13453	0.061259	0.103796	0.143342	0.080846	0.132146	0.133923	0.061318	0.103584	0.142892	0.080772	0.103425	0.143056	0.08071
6.06060606060606	0.143052	0.126358	0.058874	0.132384	0.134011	0.061285	0.10343	0.143426	0.08097	0.132302	0.134042	0.061487	0.103601	0.142973	0.081223	0.103535	0.143114	0.081093
6.16161616161616	0.14248	0.125663	0.058341	0.131166	0.133625	0.061129	0.103165	0.142347	0.080743	0.132072	0.134023	0.061114	0.103667	0.142571	0.080358	0.103302	0.142377	0.080599
6.26262626262626	0.14305	0.125615	0.058236	0.132369	0.133095	0.061196	0.103966	0.142676	0.080626	0.132569	0.133318	0.060645	0.103735	0.143081	0.079951	0.10413	0.142724	0.080213
6.36363636363636	0.143001	0.125724	0.058042	0.132014	0.13358	0.060702	0.103816	0.142887	0.080045	0.132336	0.13363	0.060618	0.10404	0.142649	0.080079	0.103851	0.143133	0.0802
6.46464646464647	0.142687	0.126045	0.058397	0.132303	0.133834	0.06127	0.103702	0.143114	0.080722	0.132081	0.134441	0.061088	0.103126	0.14343	0.080677	0.103554	0.143442	0.080765
6.56565656565657	0.143165	0.12573	0.058515	0.132272	0.13367	0.061448	0.104003	0.142988	0.080654	0.13238	0.133594	0.061349	0.103673	0.142676	0.080908	0.103978	0.143199	0.081073
6.66666666666667	0.142643	0.126138	0.058787	0.131785	0.133513	0.061261	0.102723	0.142014	0.081225	0.13205	0.134187	0.061542	0.103016	0.14264	0.081307	0.103037	0.142492	0.081078
6.76767676767677	0.142417	0.125613	0.058548	0.132293	0.133276	0.061262	0.103791	0.142418	0.080618	0.132498	0.133221	0.061334	0.10359	0.142615	0.080886	0.103599	0.142237	0.080542
6.86868686868687	0.143115	0.126447	0.058415	0.132724	0.13412	0.061203	0.103849	0.143476	0.080693	0.132569	0.133694	0.061237	0.10395	0.14297	0.08077	0.104408	0.143015	0.080712
6.96969696969697	0.142435	0.126093	0.058513	0.132181	0.134123	0.061073	0.103635	0.143214	0.080697	0.131708	0.133728	0.0611	0.103416	0.142888	0.080676	0.103453	0.143268	0.080607
7.07070707070707	0.143182	0.12551	0.057965	0.132294	0.133352	0.060654	0.1039	0.14222	0.080064	0.132108	0.133431	0.060574	0.103974	0.142835	0.080226	0.103719	0.142728	0.079924
7.17171717171717	0.143028	0.125954	0.058359	0.132487	0.133363	0.061259	0.103808	0.142742	0.080623	0.132728	0.133724	0.061275	0.103741	0.142859	0.080706	0.103846	0.142775	0.080785
7.27272727272727	0.142812	0.125947	0.05848	0.132277	0.133567	0.061432	0.103661	0.142571	0.080889	0.132418	0.133801	0.061122	0.103977	0.142745	0.080558	0.103859	0.142413	0.08096
7.37373737373737	0.143162	0.12645	0.058854	0.132076	0.134221	0.061462	0.103448	0.142947	0.080958	0.132142	0.133907	0.061273	0.103571	0.142927	0.080861	0.103612	0.142939	0.080873
7.47474747474747	0.142931	0.126385	0.058526	0.132574	0.133504	0.061424	0.103397	0.14297	0.081003	0.132289	0.133436	0.061174	0.103606	0.142974	0.080663	0.103524	0.142504	0.08074
7.57575757575758	0.142782	0.126553	0.058632	0.132332	0.133644	0.061455	0.104073	0.14333	0.081082	0.132289	0.133893	0.061299	0.103821	0.143049	0.080782	0.10416	0.14312	0.081118
7.67676767676768	0.142421	0.125568	0.05863	0.131947	0.133562	0.061481	0.103361	0.142467	0.081026	0.13196	0.133468	0.061137	0.103376	0.142159	0.080774	0.1032	0.142189	0.080872
7.77777777777778	0.142224	0.1254	0.058407	0.132209	0.133354	0.061098	0.103505	0.142292	0.080887	0.132243	0.13331	0.061006	0.103769	0.142309	0.080602	0.103542	0.142568	0.080631
7.87878787878788	0.142494	0.125398	0.058297	0.132111	0.133059	0.061312	0.103504	0.142389	0.080589	0.131731	0.132946	0.06122	0.103374	0.142194	0.080538	0.103419	0.142118	0.080857
7.97979797979798	0.143111	0.12629	0.058167	0.132391	0.133999	0.061181	0.104074	0.143383	0.080385	0.132596	0.133984	0.061116	0.103766	0.143193	0.08057	0.103689	0.143259	0.080852
8.08080808080808	0.143444	0.125472	0.058118	0.132506	0.133634	0.061208	0.104085	0.142652	0.080606	0.132281	0.132723	0.061146	0.104046	0.142018	0.080153	0.103673	0.142206	0.080622
8.18181818181818	0.143059	0.125923	0.058578	0.132041	0.133365	0.060977	0.103488	0.142563	0.080637	0.131781	0.133788	0.061192	0.103472	0.143249	0.080763	0.103138	0.14302	0.080354
8.28282828282828	0.142822	0.126214	0.058275	0.132036	0.133426	0.060706	0.103757	0.142301	0.080536	0.131934	0.13365	0.060964	0.103422	0.143067	0.080706	0.10361	0.142223	0.080359
8.38383838383838	0.143339	0.125838	0.058332	0.132617	0.133717	0.061225	0.10417	0.142601	0.080824	0.13285	0.133902	0.061344	0.103829	0.142947	0.080791	0.104104	0.143297	0.080798
8.48484848484848	0.142827	0.126314	0.058155	0.132576	0.133769	0.060898	0.103958	0.143177	0.080271	0.132433	0.133601	0.060825	0.103645	0.143184	0.080331	0.10396	0.142852	0.080221
8.58585858585858	0.142862	0.126143	0.058026	0.132462	0.133687	0.06085	0.103859	0.142731	0.080319	0.13261	0.134022	0.060527	0.104305	0.143111	0.080192	0.104118	0.143035	0.080126
8.68686868686869	0.143115	0.126052	0.058332	0.132454	0.133617	0.061334	0.103883	0.142538	0.080715	0.132548	0.133482	0.060954	0.103848	0.142662	0.080671	0.103906	0.142282	0.080739
8.78787878787879	0.14292	0.125765	0.058436	0.132798	0.134015	0.061115	0.103608	0.142679	0.080817	0.13229	0.133781	0.061109	0.103597	0.14299	0.080853	0.103738	0.143188	0.081041
8.88888888888889	0.142818	0.126194	0.058331	0.132423	0.134014	0.061005	0.103683	0.142853	0.08044	0.132252	0.134414	0.060949	0.103755	0.142959	0.080478	0.10344	0.143182	0.080465
8.98989898989899	0.142908	0.125797	0.058189	0.132105	0.133389	0.060931	0.103496	0.142727	0.080303	0.132049	0.133499	0.060686	0.103505	0.142559	0.080186	0.103349	0.142487	0.080073
9.09090909090909	0.142572	0.12603	0.058059	0.131725	0.133725	0.060998	0.103693	0.142757	0.080463	0.132148	0.133562	0.060547	0.103385	0.142672	0.079904	0.103666	0.142605	0.080447
9.19191919191919	0.143417	0.125939	0.05796	0.133029	0.133847	0.061274	0.104352	0.142945	0.080668	0.132482	0.133675	0.060924	0.104075	0.142779	0.080095	0.104046	0.14266	0.080632
9.29292929292929	0.14289	0.125557	0.058224	0.131733	0.13324	0.060842	0.103718	0.142714	0.080188	0.132088	0.133274	0.060912	0.103953	0.142596	0.080461	0.103521	0.142359	0.08024
9.39393939393939	0.143314	0.125763	0.058681	0.132826	0.133291	0.061333	0.103729	0.142652	0.080771	0.132665	0.133323	0.061475	0.103751	0.142894	0.081033	0.103862	0.142792	0.081079
9.49494949494949	0.142828	0.12589	0.058026	0.132375	0.133874	0.061116	0.10385	0.142753	0.08041	0.132254	0.133929	0.06112	0.103872	0.142537	0.080398	0.104014	0.143188	0.080636
9.5959595959596	0.142562	0.126121	0.058215	0.131773	0.133893	0.060846	0.103548	0.142322	0.080484	0.132164	0.133772	0.060855	0.10364	0.142861	0.080519	0.104098	0.142913	0.080331
9.6969696969697	0.142898	0.125676	0.058685	0.131861	0.133634	0.061261	0.103331	0.142956	0.080869	0.13237	0.133037	0.061317	0.103821	0.142554	0.080912	0.103487	0.142965	0.080345
9.7979797979798	0.142511	0.125849	0.058219	0.131623	0.13354	0.06131	0.103372	0.142493	0.080635	0.13166	0.133437	0.061097	0.103392	0.142705	0.080563	0.103616	0.142557	0.080975
9.8989898989899	0.142355	0.125539	0.058319	0.132825	0.1334	0.061214	0.103516	0.14233	0.080423	0.132232	0.133245	0.061177	0.103414	0.142213	0.080323	0.103615	0.142109	0.080682
10	0.142572	0.125776	0.058609	0.131907	0.133767	0.06155	0.103209	0.142845	0.081103	0.131859	0.133465	0.061459	0.103225	0.142732	0.0808	0.103457	0.142718	0.081142
