tau	(1,2)	(1,3)	(1,4)	(1,5)	(2,3)	(2,4)	(2,5)	(3,4)	(3,5)	(4,5)
0	0.499047	0.500053	0.5006	0.500279	0.499374	0.499686	0.500009	0.499937	0.49953	0.500022
0.101010101010101	0.497163	0.487458	0.445544	0.444554	0.488469	0.446223	0.445823	0.447965	0.446796	0.459537
0.202020202020202	0.494984	0.475429	0.385962	0.3851	0.478226	0.388615	0.387768	0.391857	0.388733	0.422551
0.303030303030303	0.491209	0.463253	0.323741	0.322329	0.466009	0.325831	0.324708	0.330551	0.327411	0.388709
0.404040404040404	0.488	0.449879	0.263471	0.259871	0.453914	0.266282	0.263137	0.27132	0.265947	0.359764
0.505050505050505	0.485164	0.437926	0.206585	0.204462	0.443397	0.209643	0.207339	0.215864	0.211121	0.337772
0.606060606060606	0.48161	0.424237	0.158335	0.155244	0.431325	0.161149	0.1583	0.167235	0.161696	0.318415
0.707070707070707	0.478265	0.411726	0.118161	0.115366	0.41881	0.120579	0.117521	0.126022	0.121176	0.300216
0.808080808080808	0.476609	0.399574	0.086128	0.084032	0.408501	0.088404	0.086273	0.092868	0.08917	0.285045
0.909090909090909	0.474255	0.387188	0.062467	0.05925	0.39568	0.063914	0.060949	0.068149	0.06345	0.269552
1.01010101010101	0.469495	0.372865	0.044402	0.042	0.38287	0.045972	0.043539	0.049474	0.045827	0.253255
1.11111111111111	0.466346	0.360176	0.031225	0.029475	0.370234	0.032145	0.030741	0.035065	0.032221	0.237577
1.21212121212121	0.463564	0.348244	0.021553	0.020613	0.359618	0.02241	0.021086	0.024868	0.022631	0.220884
1.31313131313131	0.460885	0.335312	0.015179	0.014196	0.346699	0.015876	0.014892	0.017488	0.015881	0.205391
1.41414141414141	0.457	0.323286	0.010353	0.009793	0.335505	0.010837	0.010197	0.01254	0.010937	0.190519
1.51515151515152	0.453936	0.310623	0.007177	0.006618	0.322887	0.007609	0.006904	0.008692	0.007538	0.176425
1.61616161616162	0.45189	0.298759	0.004919	0.00465	0.311999	0.005217	0.004803	0.006202	0.00536	0.161748
1.71717171717172	0.448629	0.286015	0.003323	0.003085	0.29993	0.003607	0.00327	0.004442	0.003723	0.149131
1.81818181818182	0.44593	0.274914	0.002326	0.002106	0.288425	0.002453	0.00221	0.003068	0.002475	0.136977
1.91919191919192	0.441429	0.263007	0.00167	0.001473	0.277452	0.001785	0.001576	0.00225	0.001866	0.125814
2.02020202020202	0.43813	0.250969	0.001135	0.000987	0.265518	0.001185	0.001076	0.001515	0.001252	0.114853
2.12121212121212	0.435625	0.241033	0.000777	0.000687	0.255764	0.000816	0.000743	0.00105	0.000841	0.104154
2.22222222222222	0.4332	0.230059	0.000527	0.000437	0.244961	0.000549	0.000446	0.000751	0.000572	0.095265
2.32323232323232	0.429206	0.21899	0.000358	0.000278	0.234766	0.000408	0.000301	0.000563	0.000401	0.086976
2.42424242424242	0.427392	0.209744	0.000228	0.000213	0.224536	0.000256	0.000204	0.000389	0.000263	0.079191
2.52525252525253	0.424174	0.200144	0.000167	0.000139	0.215414	0.000196	0.000148	0.00027	0.000185	0.072273
2.62626262626263	0.420647	0.189323	0.000106	8.6e-05	0.203969	0.000135	9.1e-05	0.000172	0.000131	0.065588
2.72727272727273	0.419547	0.181387	6.8e-05	5.7e-05	0.19579	6.8e-05	7.2e-05	0.000109	8.4e-05	0.060194
2.82828282828283	0.415342	0.172238	5.8e-05	4.2e-05	0.186724	7.1e-05	5.3e-05	9.6e-05	6.9e-05	0.053905
2.92929292929293	0.413343	0.163829	2.8e-05	2.7e-05	0.178486	3.8e-05	2.8e-05	6e-05	4.8e-05	0.049121
3.03030303030303	0.409202	0.153936	1.9e-05	2.2e-05	0.168759	2.7e-05	2.5e-05	5.8e-05	3.2e-05	0.044784
3.13131313131313	0.407344	0.147394	1.3e-05	2e-05	0.161881	1.7e-05	1.8e-05	3.2e-05	1.8e-05	0.040535
3.23232323232323	0.402889	0.139508	9e-06	4e-06	0.153686	1.5e-05	9e-06	2.1e-05	1.4e-05	0.036687
3.33333333333333	0.401014	0.132043	5e-06	7e-06	0.146196	4e-06	8e-06	1.7e-05	9e-06	0.033196
3.43434343434343	0.396808	0.124617	5e-06	3e-06	0.13869	8e-06	7e-06	1.8e-05	5e-06	0.029965
3.53535353535354	0.394222	0.117312	5e-06	2e-06	0.130891	4e-06	2e-06	1e-05	8e-06	0.027243
3.63636363636364	0.391302	0.111205	0	2e-06	0.124363	0	2e-06	4e-06	7e-06	0.024776
3.73737373737374	0.388019	0.105277	2e-06	3e-06	0.118536	4e-06	1e-06	4e-06	1e-06	0.021984
3.83838383838384	0.386059	0.09939	1e-06	1e-06	0.112218	1e-06	0	2e-06	1e-06	0.020143
3.93939393939394	0.383178	0.094456	0	0	0.106459	0	0	3e-06	0	0.018224
4.04040404040404	0.379633	0.088895	1e-06	1e-06	0.101212	1e-06	2e-06	1e-06	0	0.016476
4.14141414141414	0.377137	0.083903	3e-06	0	0.095412	5e-06	0	4e-06	0	0.014949
4.24242424242424	0.373848	0.078254	0	0	0.09022	1e-06	0	0	2e-06	0.013407
4.34343434343434	0.371553	0.073917	0	0	0.085511	0	0	0	0	0.012388
4.44444444444444	0.368875	0.07017	0	0	0.080916	0	0	1e-06	0	0.010884
4.54545454545454	0.365991	0.065509	0	0	0.076051	0	1e-06	0	0	0.010094
4.64646464646465	0.363478	0.062083	0	0	0.072039	0	0	0	0	0.008976
4.74747474747475	0.360007	0.057969	0	0	0.068036	0	0	0	0	0.008219
4.84848484848485	0.356944	0.054674	0	0	0.063714	0	0	0	0	0.007351
4.94949494949495	0.354761	0.051383	0	0	0.060689	0	0	0	0	0.006826
5.05050505050505	0.351238	0.048399	0	0	0.057239	0	0	0	0	0.006137
5.15151515151515	0.34799	0.045062	0	0	0.054049	0	0	0	0	0.0056
5.25252525252525	0.345055	0.04243	0	0	0.051044	0	0	1e-06	0	0.004814
5.35353535353535	0.343444	0.040202	0	0	0.048094	0	0	0	0	0.004372
5.45454545454545	0.339283	0.037265	0	0	0.045093	0	0	0	0	0.004078
5.55555555555556	0.337066	0.035395	0	0	0.043035	0	0	0	0	0.003701
5.65656565656566	0.334295	0.03284	0	0	0.039958	0	0	0	0	0.0032
5.75757575757576	0.333571	0.031197	0	0	0.038157	0	0	0	0	0.00297
5.85858585858586	0.330886	0.029242	0	0	0.035762	0	0	0	0	0.002741
5.95959595959596	0.326563	0.027229	0	0	0.033542	0	0	0	0	0.002355
6.06060606060606	0.323988	0.025476	0	0	0.031678	0	0	0	0	0.002101
6.16161616161616	0.320339	0.02405	0	0	0.03001	0	0	0	0	0.001851
6.26262626262626	0.318372	0.022225	0	0	0.027834	0	0	0	0	0.001769
6.36363636363636	0.315533	0.020911	0	0	0.026264	0	0	0	0	0.001565
6.46464646464647	0.313934	0.019814	0	0	0.024995	0	0	0	0	0.001461
6.56565656565657	0.309964	0.018317	0	0	0.023476	0	0	0	0	0.00128
6.66666666666667	0.308578	0.017315	0	0	0.022089	0	0	0	0	0.001176
6.76767676767677	0.306255	0.016231	0	0	0.020889	0	0	0	0	0.001066
6.86868686868687	0.301833	0.015132	0	0	0.019622	0	0	0	0	0.000893
6.96969696969697	0.300534	0.014115	0	0	0.018528	0	0	0	0	0.000878
7.07070707070707	0.297056	0.013156	0	0	0.017238	0	0	0	0	0.00077
7.17171717171717	0.295169	0.012509	0	0	0.016161	0	0	0	0	0.00067
7.27272727272727	0.292186	0.011627	0	0	0.015218	0	0	0	0	0.000693
7.37373737373737	0.290415	0.010709	0	0	0.014295	0	0	0	0	0.00056
7.47474747474747	0.288716	0.010252	0	0	0.01365	0	0	0	0	0.000506
7.57575757575758	0.285816	0.009445	0	0	0.012811	0	0	0	0	0.000497
7.67676767676768	0.282515	0.009083	0	0	0.012159	0	0	0	0	0.000393
7.77777777777778	0.279006	0.008368	0	0	0.011239	0	0	0	0	0.000356
7.87878787878788	0.277051	0.007734	0	0	0.01055	0	0	0	0	0.00035
7.97979797979798	0.275056	0.007255	0	0	0.009937	0	0	0	0	0.00032
8.08080808080808	0.272399	0.006868	0	0	0.009458	0	0	0	0	0.000282
8.18181818181818	0.27091	0.006343	0	0	0.008823	0	0	0	0	0.000271
8.28282828282828	0.267405	0.006027	0	0	0.008444	0	0	0	0	0.000213
8.38383838383838	0.265716	0.005603	0	0	0.007756	0	0	0	0	0.000195
8.48484848484848	0.263034	0.005251	0	0	0.007296	0	0	0	0	0.000186
8.58585858585858	0.260803	0.004958	0	0	0.006902	0	0	0	0	0.000158
8.68686868686869	0.259144	0.004571	0	0	0.006544	0	0	0	0	0.00014
8.78787878787879	0.256072	0.004348	0	0	0.006114	0	0	0	0	0.000137
8.88888888888889	0.254098	0.004012	0	0	0.005877	0	0	0	0	0.000117
8.98989898989899	0.25222	0.003831	0	0	0.005433	0	0	0	0	0.000121
9.09090909090909	0.249697	0.00353	0	0	0.005214	0	0	0	0	9.7e-05
9.19191919191919	0.246787	0.00326	0	0	0.00483	0	0	0	0	9e-05
9.29292929292929	0.244891	0.003163	0	0	0.004619	0	0	0	0	7.4e-05
9.39393939393939	0.242295	0.002848	0	0	0.004285	0	0	0	0	6.7e-05
9.49494949494949	0.239721	0.0027	0	0	0.004056	0	0	0	0	6.8e-05
9.5959595959596	0.237302	0.00249	0	0	0.003822	0	0	0	0	5.8e-05
9.6969696969697	0.236058	0.002373	0	0	0.003536	0	0	0	0	4e-05
9.7979797979798	0.234343	0.00212	0	0	0.003209	0	0	0	0	4.8e-05
9.8989898989899	0.231517	0.002022	0	0	0.003053	0	0	0	0	3.8e-05
10	0.229164	0.001926	0	0	0.002942	0	0	0	0	3.6e-05
